11,   from S2-SRF_COPE-GSEG-EOPG-TN-15-0007_3.0.xlsx (column S2B_SR_AV_B10)
Number of data points:
79
Wavenumber (cm-1)   Filter response
     7062.146900       0.000000
     7067.137800       0.000044
     7072.135800       0.000120
     7077.140800       0.000234
     7082.153000       0.000174
     7087.172200       0.000148
     7092.198600       0.000147
     7097.232100       0.000155
     7102.272700       0.000160
     7107.320500       0.000181
     7112.375500       0.000226
     7117.437700       0.000221
     7122.507100       0.000194
     7127.583700       0.000332
     7132.667600       0.000531
     7137.758700       0.000852
     7142.857100       0.001575
     7147.962800       0.003164
     7153.075800       0.007194
     7158.196100       0.018603
     7163.323800       0.048082
     7168.458800       0.110113
     7173.601100       0.213254
     7178.750900       0.349944
     7183.908000       0.498288
     7189.072600       0.636159
     7194.244600       0.749343
     7199.424000       0.831895
     7204.611000       0.885721
     7209.805300       0.916570
     7215.007200       0.930687
     7220.216600       0.935168
     7225.433500       0.936274
     7230.658000       0.937614
     7235.890000       0.940718
     7241.129600       0.945494
     7246.376800       0.951304
     7251.631600       0.957577
     7256.894000       0.963770
     7262.164100       0.970164
     7267.441900       0.977116
     7272.727300       0.984249
     7278.020400       0.990856
     7283.321200       0.996198
     7288.629700       0.999440
     7293.946000       1.000000
     7299.270100       0.997735
     7304.601900       0.993032
     7309.941500       0.986118
     7315.289000       0.973979
     7320.644200       0.944739
     7326.007300       0.880536
     7331.378300       0.770431
     7336.757200       0.622195
     7342.143900       0.461097
     7347.538600       0.313481
     7352.941200       0.195341
     7358.351700       0.111412
     7363.770300       0.057560
     7369.196800       0.026613
     7374.631300       0.011310
     7380.073800       0.004791
     7385.524400       0.002181
     7390.983000       0.001051
     7396.449700       0.000547
     7401.924500       0.000369
     7407.407400       0.000347
     7412.898400       0.000322
     7418.397600       0.000260
     7423.905000       0.000192
     7429.420500       0.000158
     7434.944200       0.000139
     7440.476200       0.000099
     7446.016400       0.000124
     7451.564800       0.000089
     7457.121600       0.000125
     7462.686600       0.000136
     7468.259900       0.000025
     7473.841600       0.000000
